t,Lx(t),Ly(t)
0.00000,0.00000,0.00000
0.00333,0.05234,0.04188
0.00667,0.10453,0.08368
0.01000,0.15643,0.12533
0.01333,0.20791,0.16677
0.01667,0.25882,0.20791
0.02000,0.30902,0.24869
0.02333,0.35837,0.28903
0.02667,0.40674,0.32887
0.03000,0.45399,0.36812
0.03333,0.50000,0.40674
0.03667,0.54464,0.44464
0.04000,0.58779,0.48175
0.04333,0.62932,0.51803
0.04667,0.66913,0.55339
0.05000,0.70711,0.58779
0.05333,0.74314,0.62115
0.05667,0.77715,0.65342
0.06000,0.80902,0.68455
0.06333,0.83867,0.71447
0.06667,0.86603,0.74314
0.07000,0.89101,0.77051
0.07333,0.91355,0.79653
0.07667,0.93358,0.82115
0.08000,0.95106,0.84433
0.08333,0.96593,0.86603
0.08667,0.97815,0.88620
0.09000,0.98769,0.90483
0.09333,0.99452,0.92186
0.09667,0.99863,0.93728
0.10000,1.00000,0.95106
0.10333,0.99863,0.96316
0.10667,0.99452,0.97358
0.11000,0.98769,0.98229
0.11333,0.97815,0.98927
0.11667,0.96593,0.99452
0.12000,0.95106,0.99803
0.12333,0.93358,0.99978
0.12667,0.91355,0.99978
0.13000,0.89101,0.99803
0.13333,0.86603,0.99452
0.13667,0.83867,0.98927
0.14000,0.80902,0.98229
0.14333,0.77715,0.97358
0.14667,0.74314,0.96316
0.15000,0.70711,0.95106
0.15333,0.66913,0.93728
0.15667,0.62932,0.92186
0.16000,0.58779,0.90483
0.16333,0.54464,0.88620
0.16667,0.50000,0.86603
0.17000,0.45399,0.84433
0.17333,0.40674,0.82115
0.17667,0.35837,0.79653
0.18000,0.30902,0.77051
0.18333,0.25882,0.74314
0.18667,0.20791,0.71447
0.19000,0.15643,0.68455
0.19333,0.10453,0.65342
0.19667,0.05234,0.62115
0.20000,0.00000,0.58779
0.20333,-0.05234,0.55339
0.20667,-0.10453,0.51803
0.21000,-0.15643,0.48175
0.21333,-0.20791,0.44464
0.21667,-0.25882,0.40674
0.22000,-0.30902,0.36812
0.22333,-0.35837,0.32887
0.22667,-0.40674,0.28903
0.23000,-0.45399,0.24869
0.23333,-0.50000,0.20791
0.23667,-0.54464,0.16677
0.24000,-0.58779,0.12533
0.24333,-0.62932,0.08368
0.24667,-0.66913,0.04188
0.25000,-0.70711,0.00000
0.25333,-0.74314,-0.04188
0.25667,-0.77715,-0.08368
0.26000,-0.80902,-0.12533
0.26333,-0.83867,-0.16677
0.26667,-0.86603,-0.20791
0.27000,-0.89101,-0.24869
0.27333,-0.91355,-0.28903
0.27667,-0.93358,-0.32887
0.28000,-0.95106,-0.36812
0.28333,-0.96593,-0.40674
0.28667,-0.97815,-0.44464
0.29000,-0.98769,-0.48175
0.29333,-0.99452,-0.51803
0.29667,-0.99863,-0.55339
0.30000,-1.00000,-0.58779
0.30333,-0.99863,-0.62115
0.30667,-0.99452,-0.65342
0.31000,-0.98769,-0.68455
0.31333,-0.97815,-0.71447
0.31667,-0.96593,-0.74314
0.32000,-0.95106,-0.77051
0.32333,-0.93358,-0.79653
0.32667,-0.91355,-0.82115
0.33000,-0.89101,-0.84433
0.33333,-0.86603,-0.86603
0.33667,-0.83867,-0.88620
0.34000,-0.80902,-0.90483
0.34333,-0.77715,-0.92186
0.34667,-0.74314,-0.93728
0.35000,-0.70711,-0.95106
0.35333,-0.66913,-0.96316
0.35667,-0.62932,-0.97358
0.36000,-0.58779,-0.98229
0.36333,-0.54464,-0.98927
0.36667,-0.50000,-0.99452
0.37000,-0.45399,-0.99803
0.37333,-0.40674,-0.99978
0.37667,-0.35837,-0.99978
0.38000,-0.30902,-0.99803
0.38333,-0.25882,-0.99452
0.38667,-0.20791,-0.98927
0.39000,-0.15643,-0.98229
0.39333,-0.10453,-0.97358
0.39667,-0.05234,-0.96316
0.40000,-0.00000,-0.95106
0.40333,0.05234,-0.93728
0.40667,0.10453,-0.92186
0.41000,0.15643,-0.90483
0.41333,0.20791,-0.88620
0.41667,0.25882,-0.86603
0.42000,0.30902,-0.84433
0.42333,0.35837,-0.82115
0.42667,0.40674,-0.79653
0.43000,0.45399,-0.77051
0.43333,0.50000,-0.74314
0.43667,0.54464,-0.71447
0.44000,0.58779,-0.68455
0.44333,0.62932,-0.65342
0.44667,0.66913,-0.62115
0.45000,0.70711,-0.58779
0.45333,0.74314,-0.55339
0.45667,0.77715,-0.51803
0.46000,0.80902,-0.48175
0.46333,0.83867,-0.44464
0.46667,0.86603,-0.40674
0.47000,0.89101,-0.36812
0.47333,0.91355,-0.32887
0.47667,0.93358,-0.28903
0.48000,0.95106,-0.24869
0.48333,0.96593,-0.20791
0.48667,0.97815,-0.16677
0.49000,0.98769,-0.12533
0.49333,0.99452,-0.08368
0.49667,0.99863,-0.04188
0.50000,1.00000,-0.00000
0.50333,0.99863,0.04188
0.50667,0.99452,0.08368
0.51000,0.98769,0.12533
0.51333,0.97815,0.16677
0.51667,0.96593,0.20791
0.52000,0.95106,0.24869
0.52333,0.93358,0.28903
0.52667,0.91355,0.32887
0.53000,0.89101,0.36812
0.53333,0.86603,0.40674
0.53667,0.83867,0.44464
0.54000,0.80902,0.48175
0.54333,0.77715,0.51803
0.54667,0.74314,0.55339
0.55000,0.70711,0.58779
0.55333,0.66913,0.62115
0.55667,0.62932,0.65342
0.56000,0.58779,0.68455
0.56333,0.54464,0.71447
0.56667,0.50000,0.74314
0.57000,0.45399,0.77051
0.57333,0.40674,0.79653
0.57667,0.35837,0.82115
0.58000,0.30902,0.84433
0.58333,0.25882,0.86603
0.58667,0.20791,0.88620
0.59000,0.15643,0.90483
0.59333,0.10453,0.92186
0.59667,0.05234,0.93728
0.60000,0.00000,0.95106
0.60333,-0.05234,0.96316
0.60667,-0.10453,0.97358
0.61000,-0.15643,0.98229
0.61333,-0.20791,0.98927
0.61667,-0.25882,0.99452
0.62000,-0.30902,0.99803
0.62333,-0.35837,0.99978
0.62667,-0.40674,0.99978
0.63000,-0.45399,0.99803
0.63333,-0.50000,0.99452
0.63667,-0.54464,0.98927
0.64000,-0.58779,0.98229
0.64333,-0.62932,0.97358
0.64667,-0.66913,0.96316
0.65000,-0.70711,0.95106
0.65333,-0.74314,0.93728
0.65667,-0.77715,0.92186
0.66000,-0.80902,0.90483
0.66333,-0.83867,0.88620
0.66667,-0.86603,0.86603
0.67000,-0.89101,0.84433
0.67333,-0.91355,0.82115
0.67667,-0.93358,0.79653
0.68000,-0.95106,0.77051
0.68333,-0.96593,0.74314
0.68667,-0.97815,0.71447
0.69000,-0.98769,0.68455
0.69333,-0.99452,0.65342
0.69667,-0.99863,0.62115
0.70000,-1.00000,0.58779
0.70333,-0.99863,0.55339
0.70667,-0.99452,0.51803
0.71000,-0.98769,0.48175
0.71333,-0.97815,0.44464
0.71667,-0.96593,0.40674
0.72000,-0.95106,0.36812
0.72333,-0.93358,0.32887
0.72667,-0.91355,0.28903
0.73000,-0.89101,0.24869
0.73333,-0.86603,0.20791
0.73667,-0.83867,0.16677
0.74000,-0.80902,0.12533
0.74333,-0.77715,0.08368
0.74667,-0.74314,0.04188
0.75000,-0.70711,0.00000
0.75333,-0.66913,-0.04188
0.75667,-0.62932,-0.08368
0.76000,-0.58779,-0.12533
0.76333,-0.54464,-0.16677
0.76667,-0.50000,-0.20791
0.77000,-0.45399,-0.24869
0.77333,-0.40674,-0.28903
0.77667,-0.35837,-0.32887
0.78000,-0.30902,-0.36812
0.78333,-0.25882,-0.40674
0.78667,-0.20791,-0.44464
0.79000,-0.15643,-0.48175
0.79333,-0.10453,-0.51803
0.79667,-0.05234,-0.55339
0.80000,-0.00000,-0.58779
0.80333,0.05234,-0.62115
0.80667,0.10453,-0.65342
0.81000,0.15643,-0.68455
0.81333,0.20791,-0.71447
0.81667,0.25882,-0.74314
0.82000,0.30902,-0.77051
0.82333,0.35837,-0.79653
0.82667,0.40674,-0.82115
0.83000,0.45399,-0.84433
0.83333,0.50000,-0.86603
0.83667,0.54464,-0.88620
0.84000,0.58779,-0.90483
0.84333,0.62932,-0.92186
0.84667,0.66913,-0.93728
0.85000,0.70711,-0.95106
0.85333,0.74314,-0.96316
0.85667,0.77715,-0.97358
0.86000,0.80902,-0.98229
0.86333,0.83867,-0.98927
0.86667,0.86603,-0.99452
0.87000,0.89101,-0.99803
0.87333,0.91355,-0.99978
0.87667,0.93358,-0.99978
0.88000,0.95106,-0.99803
0.88333,0.96593,-0.99452
0.88667,0.97815,-0.98927
0.89000,0.98769,-0.98229
0.89333,0.99452,-0.97358
0.89667,0.99863,-0.96316
0.90000,1.00000,-0.95106
0.90333,0.99863,-0.93728
0.90667,0.99452,-0.92186
0.91000,0.98769,-0.90483
0.91333,0.97815,-0.88620
0.91667,0.96593,-0.86603
0.92000,0.95106,-0.84433
0.92333,0.93358,-0.82115
0.92667,0.91355,-0.79653
0.93000,0.89101,-0.77051
0.93333,0.86603,-0.74314
0.93667,0.83867,-0.71447
0.94000,0.80902,-0.68455
0.94333,0.77715,-0.65342
0.94667,0.74314,-0.62115
0.95000,0.70711,-0.58779
0.95333,0.66913,-0.55339
0.95667,0.62932,-0.51803
0.96000,0.58779,-0.48175
0.96333,0.54464,-0.44464
0.96667,0.50000,-0.40674
0.97000,0.45399,-0.36812
0.97333,0.40674,-0.32887
0.97667,0.35837,-0.28903
0.98000,0.30902,-0.24869
0.98333,0.25882,-0.20791
0.98667,0.20791,-0.16677
0.99000,0.15643,-0.12533
0.99333,0.10453,-0.08368
0.99667,0.05234,-0.04188
1.00000,0.00000,-0.00000
1.00333,-0.05234,0.04188
1.00667,-0.10453,0.08368
1.01000,-0.15643,0.12533
1.01333,-0.20791,0.16677
1.01667,-0.25882,0.20791
1.02000,-0.30902,0.24869
1.02333,-0.35837,0.28903
1.02667,-0.40674,0.32887
1.03000,-0.45399,0.36812
1.03333,-0.50000,0.40674
1.03667,-0.54464,0.44464
1.04000,-0.58779,0.48175
1.04333,-0.62932,0.51803
1.04667,-0.66913,0.55339
1.05000,-0.70711,0.58779
1.05333,-0.74314,0.62115
1.05667,-0.77715,0.65342
1.06000,-0.80902,0.68455
1.06333,-0.83867,0.71447
1.06667,-0.86603,0.74314
1.07000,-0.89101,0.77051
1.07333,-0.91355,0.79653
1.07667,-0.93358,0.82115
1.08000,-0.95106,0.84433
1.08333,-0.96593,0.86603
1.08667,-0.97815,0.88620
1.09000,-0.98769,0.90483
1.09333,-0.99452,0.92186
1.09667,-0.99863,0.93728
1.10000,-1.00000,0.95106
1.10333,-0.99863,0.96316
1.10667,-0.99452,0.97358
1.11000,-0.98769,0.98229
1.11333,-0.97815,0.98927
1.11667,-0.96593,0.99452
1.12000,-0.95106,0.99803
1.12333,-0.93358,0.99978
1.12667,-0.91355,0.99978
1.13000,-0.89101,0.99803
1.13333,-0.86603,0.99452
1.13667,-0.83867,0.98927
1.14000,-0.80902,0.98229
1.14333,-0.77715,0.97358
1.14667,-0.74314,0.96316
1.15000,-0.70711,0.95106
1.15333,-0.66913,0.93728
1.15667,-0.62932,0.92186
1.16000,-0.58779,0.90483
1.16333,-0.54464,0.88620
1.16667,-0.50000,0.86603
1.17000,-0.45399,0.84433
1.17333,-0.40674,0.82115
1.17667,-0.35837,0.79653
1.18000,-0.30902,0.77051
1.18333,-0.25882,0.74314
1.18667,-0.20791,0.71447
1.19000,-0.15643,0.68455
1.19333,-0.10453,0.65342
1.19667,-0.05234,0.62115
1.20000,-0.00000,0.58779
1.20333,0.05234,0.55339
1.20667,0.10453,0.51803
1.21000,0.15643,0.48175
1.21333,0.20791,0.44464
1.21667,0.25882,0.40674
1.22000,0.30902,0.36812
1.22333,0.35837,0.32887
1.22667,0.40674,0.28903
1.23000,0.45399,0.24869
1.23333,0.50000,0.20791
1.23667,0.54464,0.16677
1.24000,0.58779,0.12533
1.24333,0.62932,0.08368
1.24667,0.66913,0.04188
1.25000,0.70711,0.00000
1.25333,0.74314,-0.04188
1.25667,0.77715,-0.08368
1.26000,0.80902,-0.12533
1.26333,0.83867,-0.16677
1.26667,0.86603,-0.20791
1.27000,0.89101,-0.24869
1.27333,0.91355,-0.28903
1.27667,0.93358,-0.32887
1.28000,0.95106,-0.36812
1.28333,0.96593,-0.40674
1.28667,0.97815,-0.44464
1.29000,0.98769,-0.48175
1.29333,0.99452,-0.51803
1.29667,0.99863,-0.55339
1.30000,1.00000,-0.58779
1.30333,0.99863,-0.62115
1.30667,0.99452,-0.65342
1.31000,0.98769,-0.68455
1.31333,0.97815,-0.71447
1.31667,0.96593,-0.74314
1.32000,0.95106,-0.77051
1.32333,0.93358,-0.79653
1.32667,0.91355,-0.82115
1.33000,0.89101,-0.84433
1.33333,0.86603,-0.86603
1.33667,0.83867,-0.88620
1.34000,0.80902,-0.90483
1.34333,0.77715,-0.92186
1.34667,0.74314,-0.93728
1.35000,0.70711,-0.95106
1.35333,0.66913,-0.96316
1.35667,0.62932,-0.97358
1.36000,0.58779,-0.98229
1.36333,0.54464,-0.98927
1.36667,0.50000,-0.99452
1.37000,0.45399,-0.99803
1.37333,0.40674,-0.99978
1.37667,0.35837,-0.99978
1.38000,0.30902,-0.99803
1.38333,0.25882,-0.99452
1.38667,0.20791,-0.98927
1.39000,0.15643,-0.98229
1.39333,0.10453,-0.97358
1.39667,0.05234,-0.96316
1.40000,0.00000,-0.95106
1.40333,-0.05234,-0.93728
1.40667,-0.10453,-0.92186
1.41000,-0.15643,-0.90483
1.41333,-0.20791,-0.88620
1.41667,-0.25882,-0.86603
1.42000,-0.30902,-0.84433
1.42333,-0.35837,-0.82115
1.42667,-0.40674,-0.79653
1.43000,-0.45399,-0.77051
1.43333,-0.50000,-0.74314
1.43667,-0.54464,-0.71447
1.44000,-0.58779,-0.68455
1.44333,-0.62932,-0.65342
1.44667,-0.66913,-0.62115
1.45000,-0.70711,-0.58779
1.45333,-0.74314,-0.55339
1.45667,-0.77715,-0.51803
1.46000,-0.80902,-0.48175
1.46333,-0.83867,-0.44464
1.46667,-0.86603,-0.40674
1.47000,-0.89101,-0.36812
1.47333,-0.91355,-0.32887
1.47667,-0.93358,-0.28903
1.48000,-0.95106,-0.24869
1.48333,-0.96593,-0.20791
1.48667,-0.97815,-0.16677
1.49000,-0.98769,-0.12533
1.49333,-0.99452,-0.08368
1.49667,-0.99863,-0.04188
1.50000,-1.00000,-0.00000
1.50333,-0.99863,0.04188
1.50667,-0.99452,0.08368
1.51000,-0.98769,0.12533
1.51333,-0.97815,0.16677
1.51667,-0.96593,0.20791
1.52000,-0.95106,0.24869
1.52333,-0.93358,0.28903
1.52667,-0.91355,0.32887
1.53000,-0.89101,0.36812
1.53333,-0.86603,0.40674
1.53667,-0.83867,0.44464
1.54000,-0.80902,0.48175
1.54333,-0.77715,0.51803
1.54667,-0.74314,0.55339
1.55000,-0.70711,0.58779
1.55333,-0.66913,0.62115
1.55667,-0.62932,0.65342
1.56000,-0.58779,0.68455
1.56333,-0.54464,0.71447
1.56667,-0.50000,0.74314
1.57000,-0.45399,0.77051
1.57333,-0.40674,0.79653
1.57667,-0.35837,0.82115
1.58000,-0.30902,0.84433
1.58333,-0.25882,0.86603
1.58667,-0.20791,0.88620
1.59000,-0.15643,0.90483
1.59333,-0.10453,0.92186
1.59667,-0.05234,0.93728
1.60000,-0.00000,0.95106
1.60333,0.05234,0.96316
1.60667,0.10453,0.97358
1.61000,0.15643,0.98229
1.61333,0.20791,0.98927
1.61667,0.25882,0.99452
1.62000,0.30902,0.99803
1.62333,0.35837,0.99978
1.62667,0.40674,0.99978
1.63000,0.45399,0.99803
1.63333,0.50000,0.99452
1.63667,0.54464,0.98927
1.64000,0.58779,0.98229
1.64333,0.62932,0.97358
1.64667,0.66913,0.96316
1.65000,0.70711,0.95106
1.65333,0.74314,0.93728
1.65667,0.77715,0.92186
1.66000,0.80902,0.90483
1.66333,0.83867,0.88620
1.66667,0.86603,0.86603
1.67000,0.89101,0.84433
1.67333,0.91355,0.82115
1.67667,0.93358,0.79653
1.68000,0.95106,0.77051
1.68333,0.96593,0.74314
1.68667,0.97815,0.71447
1.69000,0.98769,0.68455
1.69333,0.99452,0.65342
1.69667,0.99863,0.62115
1.70000,1.00000,0.58779
1.70333,0.99863,0.55339
1.70667,0.99452,0.51803
1.71000,0.98769,0.48175
1.71333,0.97815,0.44464
1.71667,0.96593,0.40674
1.72000,0.95106,0.36812
1.72333,0.93358,0.32887
1.72667,0.91355,0.28903
1.73000,0.89101,0.24869
1.73333,0.86603,0.20791
1.73667,0.83867,0.16677
1.74000,0.80902,0.12533
1.74333,0.77715,0.08368
1.74667,0.74314,0.04188
1.75000,0.70711,0.00000
1.75333,0.66913,-0.04188
1.75667,0.62932,-0.08368
1.76000,0.58779,-0.12533
1.76333,0.54464,-0.16677
1.76667,0.50000,-0.20791
1.77000,0.45399,-0.24869
1.77333,0.40674,-0.28903
1.77667,0.35837,-0.32887
1.78000,0.30902,-0.36812
1.78333,0.25882,-0.40674
1.78667,0.20791,-0.44464
1.79000,0.15643,-0.48175
1.79333,0.10453,-0.51803
1.79667,0.05234,-0.55339
1.80000,0.00000,-0.58779
1.80333,-0.05234,-0.62115
1.80667,-0.10453,-0.65342
1.81000,-0.15643,-0.68455
1.81333,-0.20791,-0.71447
1.81667,-0.25882,-0.74314
1.82000,-0.30902,-0.77051
1.82333,-0.35837,-0.79653
1.82667,-0.40674,-0.82115
1.83000,-0.45399,-0.84433
1.83333,-0.50000,-0.86603
1.83667,-0.54464,-0.88620
1.84000,-0.58779,-0.90483
1.84333,-0.62932,-0.92186
1.84667,-0.66913,-0.93728
1.85000,-0.70711,-0.95106
1.85333,-0.74314,-0.96316
1.85667,-0.77715,-0.97358
1.86000,-0.80902,-0.98229
1.86333,-0.83867,-0.98927
1.86667,-0.86603,-0.99452
1.87000,-0.89101,-0.99803
1.87333,-0.91355,-0.99978
1.87667,-0.93358,-0.99978
1.88000,-0.95106,-0.99803
1.88333,-0.96593,-0.99452
1.88667,-0.97815,-0.98927
1.89000,-0.98769,-0.98229
1.89333,-0.99452,-0.97358
1.89667,-0.99863,-0.96316
1.90000,-1.00000,-0.95106
1.90333,-0.99863,-0.93728
1.90667,-0.99452,-0.92186
1.91000,-0.98769,-0.90483
1.91333,-0.97815,-0.88620
1.91667,-0.96593,-0.86603
1.92000,-0.95106,-0.84433
1.92333,-0.93358,-0.82115
1.92667,-0.91355,-0.79653
1.93000,-0.89101,-0.77051
1.93333,-0.86603,-0.74314
1.93667,-0.83867,-0.71447
1.94000,-0.80902,-0.68455
1.94333,-0.77715,-0.65342
1.94667,-0.74314,-0.62115
1.95000,-0.70711,-0.58779
1.95333,-0.66913,-0.55339
1.95667,-0.62932,-0.51803
1.96000,-0.58779,-0.48175
1.96333,-0.54464,-0.44464
1.96667,-0.50000,-0.40674
1.97000,-0.45399,-0.36812
1.97333,-0.40674,-0.32887
1.97667,-0.35837,-0.28903
1.98000,-0.30902,-0.24869
1.98333,-0.25882,-0.20791
1.98667,-0.20791,-0.16677
1.99000,-0.15643,-0.12533
1.99333,-0.10453,-0.08368
1.99667,-0.05234,-0.04188
2.00000,-0.00000,-0.00000
